DMXR1    DMXR2    t_infty [ms]     k*DMX [ms GHz^2]     t_alpha [ms GHz^-alpha]
55275.3024 55278.34649 -6.1631361273507235 6.5080992603876835 5.264898454674793 15.961663700962697 9.031164704964567e-10 7.525547754605752
55305.24105 55307.24689 -2.7274303424800044 6.114701801096725 0.18145148537635666 14.98719923531986 2.617579923178268 7.067452281114346
55337.13343 55340.17719 -9.821157054641905 3.789584606709035 6.364762722149273 9.294838624329678 0.4133056002201685 4.384428791274953
55361.06776 55365.15062 -4.723199347122163 8.222159549365134 6.256266224204594 20.166930957880304 2.6195776547943694e-07 9.513089356120272
55390.0386 55396.06584 2.2441707637871895 6.749863710497497 -14.045278945302975 16.537898608204117 9.999998463292544 1.8965450203795733
55429.9245 55430.95392 -5.461086686379252 5.502925667435756 4.171774496584026 13.48911914023974 4.505787665198824e-05 6.3650907159457875
55461.84142 55463.88395 -5.999669435770331 1.0184147615743324 2.3404313330586826 2.4978545460509443 1.55570061018157 1.1782258769913359
55492.71186 55493.75081 -3.37513366518459 17.196856025739393 3.982394750880942 42.32369186590951 5.19920247965544e-07 20.033540536421672
55520.6311 55521.68055 -3.9440616720078903 12.699914817920849 7.524330297262065 31.302424313524252 3.249824265250112e-07 13.464938747464796
55578.52222 55579.56717 -7.690925480228495 15.490775100684896 5.544200904617037 38.59838091705352 8.125127293201473e-08 19.067422626926504
55616.37331 55617.41232 -5.150032982024534 3.987708673176437 4.882261440931218 9.780154526017657 5.298412486531845e-08 5.874344509986229
55639.35569 55641.394379999999998 -5.558135873911822 10.626525582299601 2.877950613833216 26.061084633416243 1.334369522224816 12.291366868883326
55670.28674 55674.28712 -6.778359091061042 1.2689947637807648 5.001531535563365 3.112173460391372 1.2284866457434873e-08 0.6774931256511374
55700.20477 55704.20528 -6.694527634743842 3.0879729769062965 4.9360720580801765 7.573963898070336 1.9174038967673113e-07 2.6208595252913303
55731.12014 55732.12877 1.5178509249706624 9.4874773607186 -14.314289960173443 23.25091821922157 8.675728389958904 10.951496070356667
55799.88733 55800.89572 -2.228328855132484 12.883549710392618 3.342870415706993 31.600752829533537 3.102729462245435e-08 14.894529922131898
55826.8205 55828.81491 -9.36135486788123 14.63654229835072 8.016524498505868 36.03433759895275 1.48020484758149e-11 0.138028248666236
55863.71955 55864.7166 7.334398537172921 8.759670398560957 -13.77303606210079 19.9814155956764 5.555556932513648 9.202181304055054
55892.64019 55893.63741 -2.9172577022118613 5.638255541618417 2.506917107358897 13.82972201776233 1.7372979164572704 6.523552792537054
55918.56926 55919.56642 -6.1371284621687625 5.798081032796019 1.1857785393875786 14.221163442703181 2.9230380346648137 6.708134306412193
55948.48718 55949.48459 -6.188271635753235 4.114069593582357 2.830919945225399 10.090500645393952 1.3196945301492584 4.759722805237893
56034.35492 56035.36262 -6.8606081996960375 2.825240942530481 5.7784964783545645 6.929134132691485 3.175966711843614e-09 3.267271289288202
56066.26918 56068.30412 -1.1987270587640704 7.146370772131918 -11.04708626647625 17.527548460684937 8.303186629439665 8.267731641941783
56094.20383 56095.20731 5.064319675824377 5.077194742739215 -15.165121168269842 12.453046873202569 9.999999442521926 5.873903374091504
56151.0067 56152.00794 -4.530276238267438 1.9761378716038316 5.542495589398762 4.846827207998245 2.4189540370755935e-08 1.5887636971248587
56172.95421 56174.95778 -2.990310898374792 36.69174168536548 5.451297049485889 91.02341006626997 0.5037977531222337 42.796467505767666
56193.89439 56194.90144 -5.312148880239381 2.9255968815552507 -1.5640726524398778 7.177431363134778 3.6966508456360625 3.3875438166186194
56213.84231 56214.84834 -2.6329110377162785 13.603639351857547 4.650427744288365 33.430519155682056 9.73928376835076e-08 17.240697054185453
56234.88347 56235.77827 -5.862825124188566 4.27162160381776 5.492241345752619 10.479495981179983 7.738754081998422e-11 4.952197553698587
56249.7634 56250.75609 -8.966841047889107 1.7653053796443412 7.070184347626021 4.329160910149956 2.16030082711427e-08 2.0423360036109597
56310.51317 56311.58187 -2.4159992280650253 16.307337963411783 -12.585129542678441 39.603880324312 9.999940320949856 18.63086742368206
56332.52709 56333.62331 0.8660787898919773 12.767773359566924 -10.758877958001962 31.282768517534674 7.2228564811004325 14.769337075906005
56352.44578 56354.4368 -7.794573317953287 1.382042765380201 5.721314493019926 3.3999207729826413 3.010369731271112e-12 1.5877823656462482
56367.41062 56368.40587 -3.1180117578487487 9.488548680852437 -6.873361805898983 23.2731288554744 6.035573042921227 10.977925697493708
56387.38521 56391.30003 -4.2046073582172365 5.790203941295786 -0.7174661135346274 14.201584616928168 3.071737758388497 6.698951997077056
56407.24457 56410.3799 5.438672204278023 26.545915797604565 -9.729273024064291 64.53216631808223 3.9056028919795893 30.260192594727368
56431.26391 56432.32736 -7.738877724066434 1.4859819963890946 6.337915208893169 3.644633964795419 1.1879159322880639e-08 0.8954460027202308
56450.12339 56451.26693 -3.807615818623548 13.089200284790973 4.9944342202535985 32.10550095781042 0.4557172373733448 15.140728063399091
56471.12289 56472.07346 2.461276836674432 11.98220593145972 -9.378497112340698 29.388939406361395 6.504122024494574 13.863107472204007
56492.18795 56493.13496 2.704031578472993 20.318683732503636 -15.91070247144742 50.039565233573434 9.999999983538846 2.4645395073872476
56522.01439 56523.05567 -3.34574548871175 15.340559102508204 3.0056532486818344 36.832588963596706 1.6325321933309067 17.30876676994207
56548.88275 56550.9449 2.6995994597996975 4.654134976288816 -10.279714319847116 11.417684703414261 8.292612656790947 5.388676308701404
56584.80545 56585.83504 -0.7755218263929942 16.471858380824244 -7.650948341445968 40.1425622585819 5.662473753957293 18.884251274028564
56641.61994 56643.65933 -8.302498500984875 12.567794801734175 8.823368330857644 30.9541926919671 1.3846476415446674e-06 49.52621298204368
56675.59611 56676.59629 -4.3637239393833145 4.200874624616058 5.492532722890485 10.62373823499963 7.388257727836134e-08 19.02894293837612
56706.53182 56709.47775 -7.5282954406548 3.9138524758471007 5.516201853495401 9.599731790202018 3.924969793622779e-09 0.15686476005004507
56733.4682 56736.35094 -0.41911609687693935 10.911308520408813 -12.510632322220822 27.08522693403299 9.635589441068989 12.80761940745441
56762.34189 56763.42989 -6.554180061214585 4.779936436106326 1.3848239817949106 11.723806890371144 2.1214679115693946 5.530226773571615
56790.32767 56792.26656 -1.147631362305645 9.276054215693224 -13.559958286656006 22.24828952922883 9.99999999876785 10.43632151469541
56828.23088 56829.22295 -3.527871375925721 12.902010398188214 6.554910682266108 31.64803180386772 2.862940440273576e-09 0.7089868140480973
56850.11436 56851.12116 -5.159383234105727 0.9871566041644111 6.469886861558135 2.421208746779091 0.4603922426146917 1.142090260470393
56921.89807 56922.98976 -4.066838875658468 3.602748259721433 1.6111711932671402 8.836622200228442 2.7328130597428717 4.168244935588203
56977.81595 56978.768909999999998 -6.337451450767634 11.424247919313375 9.026281030324425 28.020431717763387 2.5755564347917925e-10 13.2053342947881
57011.637059999999998 57012.67047 -11.895474795362082 4.1381747869194 4.721929521038982 10.264265439517786 2.59977859083113 4.855008557272341
57040.64133 57041.64944 -0.5936764867557015 9.883056153390898 -12.856767732600755 24.391563533087943 9.999999999889443 11.5923709984366
57078.49142 57080.47159 -3.3843533486463935 8.283764817347086 -2.007302916894825 20.949730202829826 4.3307705608906035 10.228305110474688
57101.40045 57102.46114 -10.409774124672067 8.481893948760975 8.722124070199445 20.803407781027833 5.1379239751625505e-09 0.2938916695833706
57131.32744 57132.33014 -9.487353445620199 3.737769380977304 7.520768965903405 9.162902952814234 1.0373923942097463e-11 4.346501483061317
57161.26078 57162.25157 -2.02719733818218 8.107183340367081 1.9652269821272212 19.884155267383896 2.2116993012209245 9.37954705660354
57192.22247 57195.09422 -0.8764932128587274 16.407087107278077 -14.053802490266719 39.78449028991278 9.999972705311624 7.641169158248547
57306.91352 57307.93522 -8.439920267205904 13.640287249314593 6.019020539086849 33.462763661721574 4.706147138655581e-09 0.36749447488729897
57335.8989 57336.92679 -0.18530564004702477 4.0652110413194595 -12.857659316520627 10.090933233770293 9.176515479065806 4.773070767181594
57397.6843 57398.69186 -18.48240891953438 23.182298925906032 13.001145830575338 56.85879303882909 2.509197190081469e-05 26.82028632876646
57432.6656 57437.64752 -3.2542917470534642 18.292627471549498 -4.032676448462348 45.40923750509731 5.9554066885280275 21.47924976028036
57459.47586 57461.58537 -1.1534854625941526 16.772308364771426 -5.393838489638074 41.63370765273506 4.184179626517432 19.69299056248363
57488.46496 57489.50656 3.7155437402839215 14.491530827836735 -14.230912900589301 35.543502585800724 9.999999996662476 16.768380329592436
57518.42468 57519.43056 -13.478576222950862 12.327906331768032 9.671696795590014 29.81404664077476 9.800940614645981e-09 0.556088033841532
57550.34077 57551.34619 4.78938246174398 16.37580651635426 -14.384191147453269 40.8336855030455 9.999999999889749 0.16597125263007956
57579.22423 57580.14083 -2.817122765071992 14.051769507336989 2.0710988520992464 34.46512052225711 1.3586709923796292e-07 16.258329750414358
57614.05523 57615.06224 -2.5602726958646698 17.48429553598132 3.7833875885476917 42.88453326038374 1.7225448921105952 20.228918147344054
57646.9932 57647.99409 -0.20481839048797182 10.935556650445841 -4.715638959462056 26.82116121867495 5.711989781305106 12.651504835666131
57703.88227 57704.7983 -8.306933492629945 3.57357157140403 7.842092054667401 8.765126569601824 4.216059168449249e-09 0.43770129283034215
57764.68279 57765.68194 -13.576292035342005 4.220648379751106 9.712856913776491 10.354122831371914 3.4496338563450024e-08 4.8835308653309975
57796.48146 57796.68858 -7.973131810671006 5.914172602873401 5.681468779933951 14.507619444532368 4.9960036108132044e-14 0.0020962650621661745
57835.4379 57836.43397 -8.486716112347706 3.6626769604769525 6.312156667411001 8.983248825008577 2.414182631582662e-08 0.40701843471503574
57859.29724 57859.50695 -4.867732561498152 1.5873998272344623 5.603740094140801 3.893596813398637 0.35270976162162904 1.8366200603328424
57893.28644 57894.30236 2.6432376371968727 9.29339278934059 -12.426125391871944 22.361175850753565 9.999999993162348 0.5067916429938257
57921.23532 57922.23044 -16.66880586795975 7.582177074360308 11.886934061363169 18.596373807759154 1.5506307349255621e-09 0.19872840653139023
