DMXR1    DMXR2    t_infty [ms]     k*DMX [ms GHz^2]     t_alpha [ms GHz^-alpha]
55275.3024 55278.34649 -3.7756167013616393 0.994551189546497 5.079661434579668 2.3208826265927764 9.183637161847003e-07 0.9532828729714568
55305.24105 55307.24689 -5.615824579468759 0.49477084052129355 5.714737423294929 1.1337492570945493 7.792805456485752e-08 0.48572544634684495
55337.13343 55340.17719 -7.320817852770427 0.5093826293979191 3.7179321545199655 1.161485168403873 1.1930890337433593 0.4977765959783871
55361.06776 55365.15062 -4.537100164351057 0.38776775897454063 6.352003804488325 0.8855278644336755 2.059026059653135e-05 0.3793917418519734
55390.0386 55396.06584 -5.778814485001615 0.38453695107813796 6.3261860725281025 0.8429671781356649 1.4118151092645803e-09 0.35802090019878685
55429.9245 55430.95392 -5.987068097226375 0.826563778960489 5.896036497387205 1.8713929136487588 2.607533600151868e-07 0.8025341926803183
55461.84142 55463.88395 -7.211883150648824 0.4653740640548818 6.004770749699534 1.0651288397242777 1.05825515017699e-09 0.007765530054590995
55492.71186 55493.75081 -2.639520410637559 0.7722761363654211 2.6308660526548007 1.7832539710394935 1.2606451269834984 0.7622972086184528
55520.6311 55521.68055 -3.5417311587089406 0.5952553613656085 6.851756887696611 1.3664649434436613 4.897450223140254e-09 0.5822316186005159
55578.52222 55579.56717 -7.413825071940786 1.447685434378847 6.132446243727048 3.386412673174022 2.992590730777067e-07 2.467252988408447
55616.37331 55617.41232 -2.793344680060775 1.209548109673301 3.077164884984133 2.9454164315049964 1.1653706562949429 1.3055549577742738
55639.35569 55641.394379999999998 -5.643813407989473 0.9802335221416564 4.525026331107047 2.210865879442059 0.632425050328041 0.942356227268917
55670.28674 55674.28712 -3.923696536770466 0.1995187435790034 5.083830874502503 0.45786535258198074 0.1424708707623168 0.19590831839105513
55700.20477 55704.20528 -4.815601564085861 0.4588734254634143 4.092252101214603 1.0469947176252707 0.47361068414676244 0.4480256305766963
55731.12014 55732.12877 -2.235807473556431 0.8467745280439309 4.574784349731877 1.964285147454021 5.774221489840414e-08 0.05208944290077088
55799.88733 55800.89572 -2.9833542795573043 0.6559281385946366 3.126517443936893 1.4917270950506174 0.7561452669110696 0.6370043598830786
55826.8205 55828.81491 -3.6891021395117902 1.410560169983715 3.568541512275819 3.17093582116782 1.5519437434627037 1.359679842991264
55863.71955 55864.7166 -7.8336813723945316 2.114142038248838 4.6776303097218035 4.93049960274374 0.7267390242683447 2.14422450742553
55892.64019 55893.63741 -5.940715385282116 0.7657322592157794 6.6738691432352955 1.719176893261593 1.2576589769608404e-08 0.7313860793936114
55918.56926 55919.56642 -5.619390856903986 0.9724370398950273 6.2304342220973 2.2251648038624925 6.345862724188578e-10 0.02227907783189948
55948.48718 55949.48459 -6.105159157555951 0.6423495653610369 5.378282980339561 1.4510133738558393 0.01984736796467268 0.6194245945057338
56034.35492 56035.36262 -4.705775671193765 0.9594732792981793 4.884130988988974 2.1774782670586523 0.2970948252569422 0.9297808102888694
56066.26918 56068.30412 -5.451039855335955 0.7411434370047615 5.95097203172854 1.6929932965183299 0.29583934511746346 0.7279098284838256
56094.20383 56095.20731 -3.429508674318383 0.7469344821045135 6.102978968517648 1.713775506680826 2.314713420936698e-09 0.7324276922091695
56151.0067 56152.00794 -3.1237699815844397 0.5789820562660258 5.237919832953122 1.3238263450566603 0.01955890187733289 0.56637155158298
56172.95421 56174.95778 -3.1317423433013913 1.0800798878023241 5.558236900890538 2.478415472852649 6.048031520045072e-09 1.04646531177494
56193.89439 56194.90144 -6.27938776690815 0.3703386854271858 4.313066639148658 0.8426827849256382 0.4850242333436633 0.3600134788027341
56213.84231 56214.84834 -5.762184137007305 1.159924102459058 5.524784123259531 2.7323216413776534 8.056493694397204e-08 1.185112340865108
56234.88347 56235.77827 -3.0684372981770562 1.3249488976280228 2.7729243672547628 2.9972050520776072 1.3052573447127198 1.2750300480558148
56249.7634 56250.75609 -5.887295842317265 0.6725269229071068 6.5086867728088675 1.5267771955023952 1.0003714523421081e-09 0.10398926018437837
56310.51317 56311.58187 -7.263332207106653 0.9657818000459794 6.216472056549473 2.200887676190329 4.61277127605797e-10 0.02308527963668583
56332.52709 56333.62331 -6.246447597803248 0.778991113907118 5.658459956374006 1.7151590086127968 0.16261533322273258 0.7291157614675976
56352.44578 56354.4368 -5.777882867653546 0.24873618834145633 5.873479319818513 0.5642697453407198 1.590424791864109e-08 0.24109986114516288
56367.41062 56368.40587 -7.189325370890315 0.9922031274604763 3.87041426833284 2.265088535264139 1.0482834114969757 0.9669975329123534
56387.38521 56391.30003 -5.582129194938651 1.1230538405691421 6.070822463235943 2.453337723193054 0.0030252805658437243 1.0253412526775338
56407.24457 56410.3799 -6.157215221258417 1.554345857287671 4.147661473678752 3.5148831376244556 0.05222326330317162 1.5202644242848298
56431.26391 56432.32736 -5.218662855590544 0.3390217307366005 6.833661688418458 0.768723505805163 1.3012787514199431e-08 0.23430849873685705
56450.12339 56451.26693 -5.443515921598963 0.9038392443628013 5.227509005319108 2.0549734458748907 0.2061297187128297 0.8760533925591022
56471.12289 56472.07346 -3.2741680885456668 0.7335660712586319 5.08959358210454 1.6794005548386624 3.883533161719299e-08 0.7225586974751674
56492.18795 56493.13496 -2.39605342345395 1.749362192586424 1.129970629524947 4.188831797273757 2.433779571948953 1.8435802878519043
56522.01439 56523.05567 -3.8315245821337993 0.9187575546672144 5.966012820593456 1.952337858325159 1.9707396825552337e-08 0.02797245502135322
56548.88275 56550.9449 -4.49383118318654 0.9210589418196742 6.721086638336648 2.0275711844462254 6.798674456742759e-08 0.8481923447867427
56584.80545 56585.83504 -5.811198837179564 0.8944541929633567 5.616026795767194 2.1186691743494372 2.158821510445108e-08 0.9226342812092876
56641.61994 56643.65933 -3.7035129335218198 1.9895964529451984 3.8547870572447605 4.171951164220293 0.9865194124170917 1.713453105765475
56675.59611 56676.59629 -5.124795951033401 0.21928404619374486 6.046094513777853 0.5176424949309214 8.031847187339736e-08 0.21804503401146447
56706.53182 56709.47775 -2.5979722252383413 0.8051248649765924 3.3846820353460947 1.8483401418049512 1.4809127947440581 0.7967100026439489
56733.4682 56736.35094 -4.903896904618826 1.0104588290097842 6.535183465600316 2.4823043599281123 7.039153593346725e-08 1.130269581406946
56762.34189 56763.42989 -9.203054304207644 1.3548347161186016 6.814877824320593 2.9932393068254837 1.7752586972674678e-06 3.4235957698434576
56790.32767 56792.26656 -8.434682312768526 0.8998272938754566 6.0387382714204145 1.8522729257999015 4.060030089902966e-11 0.00769957715713632
56828.23088 56829.22295 -2.4761469136539502 0.8343623290403075 4.577112924387037 1.9175287214289944 1.0029575123069385 0.8268393904185143
56850.11436 56851.12116 -4.510994822776314 0.09492537822494451 7.252806188720274 0.21352512936402807 4.596944491730426e-09 0.09112442267754482
56921.89807 56922.98976 -3.54373627099908 1.11893156735353 1.6090557326576036 2.5463601175179216 2.771375861407982 1.1018779843653848
56977.81595 56978.768909999999998 -4.00564377802113 0.8783815024871278 7.08004315079045 1.9847107871012488 1.2281840544581257e-08 1.0223660771082208
57011.637059999999998 57012.67047 -13.386672642792956 1.3370309193232797 9.573349471556925 3.082978939170221 3.574426310493095e-09 1.3156133359256368
57040.64133 57041.64944 -8.649961004217776 1.4894005534992591 8.143185825121764 3.3170054097585187 4.843242025209804e-06 1.0760140648412415
57078.49142 57080.47159 -5.712376229628987 0.6371804226298401 5.022398698040493 1.4562221604787744 0.9738955021748086 0.6154085415140906
57101.40045 57102.46114 -10.071685550612232 0.9051180184564711 9.057078410963312 1.9790659775656472 1.1181611192512264e-11 0.006281887605601467
57131.32744 57132.33014 -7.8018662254041224 0.5586002226933924 4.8260228314005555 1.2735565190890634 1.2547257915891785 0.5463038619800229
57161.26078 57162.25157 -4.61186527882897 0.45659574502388534 5.652652841214279 1.0540225752518242 0.5942610714864577 0.45584263199655256
57192.22247 57195.09422 -3.0990630083739097 1.3839441374864467 4.341932769647195 2.972893977748051 1.0890729628358875 1.2505027061916436
57306.91352 57307.93522 -9.009490402803944 1.260572408454707 6.899526217809228 2.9047695455480653 4.0790213984287504e-07 1.239593823966563
57335.8989 57336.92679 -8.890438921713416 0.813636755978954 7.271101317655471 1.9907476642274837 6.886967029995361e-07 1.0225621006147039
57397.6843 57398.69186 -12.800965818893282 1.0298863056833913 6.62045947944256 2.3349542031782136 0.9699963959266272 0.9987654172845977
57432.6656 57437.64752 -2.18666772800958 1.3226484380588195 2.1519236398271913 3.302992755462689 2.0591637315149147 1.4258728520162243
57459.47586 57461.58537 -6.0734454998378045 1.141824930226705 6.1904161743684005 2.6991295686850867 1.0050810739237193e-08 1.1643717228963606
57488.46496 57489.50656 -3.640471755804237 1.1806045934142706 1.8472809182556513 2.7371070749249164 2.4768607772002222 1.1889998093955878
57518.42468 57519.43056 -11.237408608118935 0.8903613423005071 6.746441946041524 1.9669307938469855 3.930471870194907e-07 2.4424285576648366
57550.34077 57551.34619 -3.5778807984256606 1.2680756291892892 6.408894838459208 2.8614837493282366 1.1418893608450276e-08 0.16606665137081927
57579.22423 57580.14083 -9.236292917593389 1.7486964224594896 5.700496117162162 3.9755839249794165 0.7758050838824659 1.7030920159548602
57614.05523 57615.06224 -5.335299830627625 0.8373068880293197 8.416006792452325 1.9032264810100072 1.698474566547148e-07 0.15517228946357559
57646.9932 57647.99409 -4.361570682383823 0.7755923489873796 7.427273864559775 1.751834137923957 5.520649104528985e-08 0.7402094312227467
57703.88227 57704.7983 -8.159292198233425 0.3020800533519115 7.691564851240513 0.6917487410095032 0.11271316274901522 0.2982837986360951
57764.68279 57765.68194 -9.206157106916091 1.2495272132838193 7.730326996201772 2.855908526701886 1.6837323318918962e-06 3.0674431745776713
57796.48146 57796.68858 -7.720126720990321 0.5124115268829 6.687704891856698 1.1705571493447213 0.10938471087949819 0.502192606513234
57835.4379 57836.43397 -6.965892403213765 1.0060795674296894 4.550744040928376 2.305460753608562 1.2870337049695901 0.9969113868123526
57859.29724 57859.50695 -3.569815897563589 0.5393341691898669 4.427257355037213 1.23864225447778 0.9247790909465547 0.5304258287637035
57893.28644 57894.30236 -4.578996986062893 1.1268761379662946 5.483897044397208 2.386489122307375 0.8504767683583314 0.9977458524108335
57921.23532 57922.23044 -13.50220968524902 1.7792779251935618 9.809411550363222 3.4588704904304914 1.3449008573473975e-09 1.3801589718419665
